_4
499
499
502
504
506
509
512
514
518
523
526
526
527
527
527
528
528
527
529
530
530
528
528
529
528
532
535
536
534
533
534
536
537
537
534
533
528
524
520
519
520
518
518
520
523
527
529
530
530
529
526
524
521
518
514
511
509
508
504
503
505
505
500
497
495
491
488
484
483
486
489
488
488
489
490
491
491
494
496
496
497
496
492
487
485
485
483
483
481
483
487
489
494
498
501
503
501
500
499
499
497
497
496
496
495
492
490
489
489
491
494
499
504
511
519
529
540
550
557
564
572
581
595
608
619
627
636
647
654
661
672
683
690
699
709
721
733
745
748
742
732
716
698
678
658
636
613
594
578
562
550
545
541
540
539
542
543
546
544
545
544
540
535
527
520
515
509
504
500
495
487
480
475
472
471
471
470
467
463
459
455
452
448
446
443
444
443
442
440
441
445
445
446
448
450
449
446
445
444
444
446
446
447
445
444
442
442
444
448
450
453
453
453
452
452
454
454
455
458
459
461
461
460
460
461
463
465
468
468
465
463
463
462
460
459
460
460
460
460
463
467
471
473
477
481
484
485
485
485
483
483
483
483
482
481
481
482
484
486
488
491
489
487
485
484
486
486
489
490
493
496
495
498
501
501
501
502
505
507
506
508
508
509
509
508
507
504
500
496
495
498
500
504
509
511
512
512
513
513
512
511
511
511
511
510
509
509
510
510
512
516
518
519
521
521
522
519
519
517
516
519
518
520
525
528
534
540
544
547
547
548
547
547
547
546
546
546
546
545
545
548
551
554
559
562
563
564
566
567
567
567
568
571
572
572
573
572
571
571
572
575
576
576
575
574
572
569
568
568
568
569
567
567
568
568
570
573
576
576
574
572
569
568
566
564
563
560
558
556
552
550
550
552
553
553
553
548
545
540
533
528
523
520
518
515
515
514
514
514
514
515
512
508
504
502
500
495
491
488
485
482
476
471
466
461
459
460
462
462
460
459
455
453
454
454
455
454
452
449
448
451
451
452
453
451
449
446
444
442
440
441
441
444
447
448
450
451
450
449
448
449
446
444
444
443
443
443
444
446
449
451
451
450
454
456
460
461
463
462
458
457
457
459
459
460
462
461
459
459
459
461
461
463
466
467
465
461
457
457
456
456
456
458
458
457
460
462
465
468
471
474
475
475
474
473
473
475
476
476
475
476
476
476
479
481
484
487
489
489
488
486
482
483
482
482
483
483
481
479
478
482
484
485
488
490
489
487
484
482
480
479
478
479
479
477
477
479
484
491
494
499
498
495
492
490
491
490
490
489
490
493
491
488
489
489
492
495
498
501
503
502
499
497
496
495
496
497
497
496
497
499
502
506
508
507
507
506
507
506
503
501
500
499
499
496
497
500
502
503
504
504
501
500
500
499
500
501
502
503
503
504
503
504
506
508
510
511
512
511
509
509
507
506
504
500
499
497
497
499
501
504
505
505
506
508
510
508
506
503
500
498
495
495
495
493
493
495
499
504
508
512
513
511
510
509
511
511
512
514
515
516
515
513
511
510
509
511
512
512
511
509
507
505
505
504
504
503
504
504
504
507
507
509
511
511
512
511
509
505
503
502
502
503
503
501
501
502
504
508
512
517
518
518
516
513
510
506
503
502
502
502
500
499
502
503
505
507
510
512
512
513
512
510
510
508
507
505
504
500
500
501
502
505
508
509
509
507
506
504
504
505
505
507
508
508
507
508
510
512
514
517
516
513
510
509
510
509
509
510
510
511
510
511
513
512
511
509
509
508
510
513
517
519
517
515
514
511
509
508
509
511
514
517
521
525
526
524
519
515
511
510
507
505
507
504
504
505
507
508
511
515
514
513
513
512
513
512
511
510
508
507
505
504
505
505
507
510
512
511
511
510
510
511
511
512
512
511
511
512
513
515
515
516
516
518
519
518
519
518
517
518
517
517
515
512
511
511
514
515
517
519
519
520
519
519
520
519
519
518
515
512
510
511
516
520
524
528
531
530
529
528
527
528
528
527
527
524
522
523
522
524
527
532
537
538
539
535
533
531
530
530
531
533
536
537
539
538
540
540
538
536
534
530
527
522
517
512
508
505
502
499
495
492
494
496
499
502
505
505
504
503
501
503
503
500
497
495
495
494
493
494
496
498
501
502
500
496
494
493
492
492
489
487
486
484
486
489
495
499
504
508
508
508
506
503
501
498
495
493
490
488
487
488
492
499
510
524
536
546
551
557
562
569
579
590
602
611
619
627
638
651
664
676
686
696
710
721
734
749
763
771
769
763
750
728
707
686
661
640
622
609
598
591
583
575
568
562
560
558
555
550
544
538
531
523
519
515
512
508
502
497
491
485
478
471
467
462
459
454
450
449
447
446
448
448
445
440
440
440
438
436
432
429
427
424
426
428
431
432
434
437
440
440
440
440
439
438
440
440
438
438
436
436
438
438
440
442
446
450
452
452
452
453
453
452
455
457
459
460
461
463
464
464
467
468
470
468
467
465
465
465
465
465
466
465
465
466
468
472
477
480
480
480
478
475
475
476
476
479
481
483
482
481
483
483
483
483
484
484
482
481
481
482
485
486
487
487
487
487
489
492
492
495
499
501
502
499
499
500
502
504
505
505
503
500
499
499
502
504
505
508
510
510
510
508
508
508
510
511
513
516
515
519
524
526
528
532
536
535
535
535
531
528
528
528
527
524
524
523
521
521
522
526
530
532
533
531
532
533
535
537
539
543
546
547
547
546
547
549
551
554
557
559
559
560
562
562
562
560
559
558
556
557
560
562
566
568
571
572
572
571
569
568
569
569
572
572
573
571
568
571
573
573
572
571
569
564
563
561
557
554
551
550
551
550
550
551
552
551
551
554
553
549
544
540
537
531
524
519
518
516
512
508
506
504
502
500
497
494
489
486
481
478
476
474
472
469
467
466
463
464
462
460
463
465
465
463
463
462
461
463
463
461
456
450
446
444
446
449
451
452
453
454
454
454
455
454
451
447
442
438
436
435
439
440
443
446
450
451
449
450
452
455
454
450
450
450
449
450
452
458
461
465
470
473
472
469
464
460
457
458
461
463
465
464
463
463
463
463
465
469
471
471
471
471
470
468
468
467
470
473
473
472
475
475
475
477
479
480
477
474
472
472
475
475
475
475
474
475
476
480
481
484
487
490
491
488
486
483
483
485
484
484
483
481
481
480
483
484
487
492
495
497
497
495
493
490
486
484
482
483
483
483
487
491
494
494
495
497
496
497
497
496
494
492
492
491
490
487
486
489
490
492
496
497
499
498
497
497
496
496
496
496
497
494
492
490
492
494
498
504
508
508
505
500
496
495
496
498
499
501
501
499
496
496
495
495
496
499
501
504
505
504
502
499
497
497
496
495
495
498
499
502
506
508
508
505
503
502
499
499
499
501
500
499
500
501
503
505
508
510
508
507
505
502
502
499
499
500
499
497
494
493
495
499
501
504
507
508
508
509
508
509
510
509
508
503
502
502
500
502
505
510
513
515
513
510
508
507
506
505
503
502
502
501
501
501
503
508
512
517
519
515
511
509
509
507
507
507
506
506
504
503
503
504
505
509
513
515
514
512
512
512
513
511
509
508
505
502
501
504
508
513
516
518
519
516
512
509
508
507
507
507
508
507
507
507
508
510
513
516
517
516
517
516
515
513
512
510
508
508
505
505
506
508
510
513
516
516
514
513
512
514
517
518
519
518
515
511
509
509
509
511
514
512
510
505
505
506
509
512
511
512
514
514
515
516
520
521
521
522
521
518
512
504
502
503
504
505
505
505
503
502
503
504
507
509
514
514
514
515
516
516
516
516
518
516
513
511
509
512
513
515
519
517
516
513
513
513
510
508
507
508
508
508
506
504
504
507
511
515
515
515
515
513
515
516
519
519
517
515
511
510
510
512
515
517
519
518
514
510
509
510
510
511
512
511
510
510
507
507
507
509
513
514
515
514
515
516
516
518
520
521
522
523
525
527
534
541
543
546
544
542
540
539
539
536
532
531
530
528
527
527
528
528
530
532
535
540
541
540
538
537
534
532
532
531
531
529
525
523
520
518
517
515
512
509
506
503
499
496
493
492
493
493
492
491
492
496
499
502
503
504
503
499
498
498
498
500
498
496
491
487
487
489
493
493
495
498
499
499
497
493
491
492
493
492
492
489
489
492
494
496
498
498
498
496
495
496
498
507
519
531
542
549
556
568
582
593
605
620
630
636
643
649
659
668
678
686
692
702
711
722
737
748
750
742
727
704
680
656
632
607
584
565
550
540
535
534
534
536
539
542
545
547
544
542
536
530
525
521
517
512
507
499
492
486
481
477
473
470
468
466
464
460
456
453
452
449
448
448
446
443
441
442
443
446
451
454
455
455
452
451
449
448
448
447
445
444
443
446
451
453
456
459
460
460
459
457
457
457
455
454
455
454
455
456
460
467
471
473
474
475
476
474
473
473
472
472
471
468
467
465
467
469
473
476
479
479
477
476
475
473
475
476
477
477
477
475
474
475
474
476
480
483
484
486
487
487
487
489
490
491
491
488
485
483
485
488
493
500
507
507
505
501
498
496
499
499
499
502
504
504
504
506
510
510
511
514
515
516
517
517
516
515
515
514
512
510
509
511
515
517
519
520
518
513
512
514
516
521
524
526
527
527
528
527
529
531
533
535
535
535
536
535
534
534
534
533
532
533
532
533
535
538
543
546
550
552
552
552
553
553
556
557
560
562
566
566
566
570
573
574
577
578
576
574
571
570
571
570
568
566
567
567
569
572
575
579
583
589
589
588
585
583
580
576
573
569
567
567
564
562
561
561
562
561
560
560
560
559
557
557
553
548
544
539
535
530
524
522
521
521
521
521
519
515
511
507
503
502
500
499
496
492
488
484
481
478
475
476
475
472
469
465
463
459
457
456
455
455
456
454
455
455
455
454
452
450
447
447
444
441
441
441
442
443
444
443
443
444
446
448
450
452
451
448
448
446
445
446
446
443
441
438
436
436
437
441
445
448
451
454
456
455
455
453
451
450
449
449
448
447
448
453
458
464
470
472
471
468
466
463
463
464
464
463
461
458
455
454
456
460
465
471
475
477
477
475
471
470
470
472
472
472
473
473
475
476
478
481
481
480
478
474
471
469
470
470
468
469
469
469
471
476
481
485
489
490
488
485
483
484
484
484
484
483
484
484
483
487
490
491
492
490
487
485
484
484
485
488
491
492
492
491
488
486
487
489
490
492
493
494
494
491
490
489
492
495
498
499
498
498
498
499
501
504
507
508
506
503
500
499
496
495
496
497
498
497
495
497
499
502
505
506
507
506
505
503
497
494
492
491
491
492
495
494
498
502
505
507
508
507
508
507
508
508
507
508
509
510
510
511
511
508
509
510
511
512
508
506
504
503
502
502
502
501
501
500
499
500
500
502
507
508
508
507
509
508
507
507
508
507
507
506
505
507
510
512
514
517
517
516
513
510
508
508
508
507
505
505
504
502
501
503
507
507
508
508
508
508
506
507
507
507
509
510
509
508
505
505
505
507
511
512
514
513
512
511
511
513
513
513
514
513
511
508
507
510
513
516
517
518
516
512
512
515
516
516
514
512
506
502
499
499
503
505
508
510
510
508
508
507
507
507
507
505
506
507
506
507
507
510
513
514
515
514
512
511
510
510
511
512
514
514
513
509
506
505
506
510
511
512
512
511
512
510
509
508
506
507
505
505
504
505
508
508
510
512
515
517
518
520
521
524
530
532
532
530
528
530
531
535
539
541
541
539
538
537
534
531
527
526
524
522
517
515
518
519
520
523
524
525
523
522
521
518
516
519
520
523
521
517
514
511
509
509
510
509
508
505
501
496
496
496
497
497
497
495
493
491
490
492
494
496
497
496
496
496
493
493
493
495
496
494
494
494
497
500
501
503
504
507
507
504
502
500
497
495
493
493
491
487
487
487
489
488
489
492
493
496
503
512
523
533
544
553
559
563
567
575
587
600
611
622
633
641
649
657
666
675
682
691
700
711
721
722
718
707
689
669
647
627
607
586
567
548
535
526
522
524
527
530
535
539
542
541
539
538
533
529
526
522
518
513
511
507
505
501
494
489
485
482
480
476
473
469
467
465
461
456
454
453
452
451
451
448
446
445
445
447
446
447
448
449
452
453
455
458
461
464
462
456
453
452
452
451
452
455
457
460
460
461
463
463
464
465
465
464
462
463
462
463
466
468
470
471
470
470
469
471
473
475
475
475
473
473
475
476
476
479
480
482
484
484
486
488
491
493
492
492
487
482
478
478
480
482
483
484
484
483
486
488
492
492
493
494
496
496
495
497
497
499
503
506
507
504
502
501
498
498
498
499
500
501
501
500
504
506
508
511
512
514
513
511
511
511
509
511
511
513
513
511
511
512
515
519
522
523
520
520
520
523
526
527
529
531
532
530
530
533
536
540
544
545
545
542
538
536
534
536
536
538
540
540
542
543
545
549
553
557
558
561
563
565
568
570
572
573
574
575
572
571
570
570
571
571
571
574
574
574
574
575
578
577
577
575
576
575
576
577
576
576
577
576
578
577
576
575
574
572
568
565
562
561
560
557
556
557
557
556
553
553
551
548
547
543
539
536
533
533
529
523
521
518
517
516
516
514
511
506
499
497
495
493
492
490
488
484
481
479
474
471
470
467
465
462
459
455
452
450
450
451
450
449
449
449
454
457
456
456
455
453
450
447
447
445
443
443
442
441
439
438
436
434
435
438
442
445
445
445
445
445
445
444
441
442
441
441
442
442
443
444
447
450
455
455
456
456
455
457
459
458
457
456
458
457
457
456
457
460
461
460
460
457
456
457
459
461
462
463
462
462
462
465
468
472
474
477
480
480
478
475
475
475
475
472
471
468
466
468
469
471
472
476
477
478
479
480
480
479
480
481
481
479
479
478
479
480
481
483
486
488
488
486
485
485
486
486
486
487
484
483
484
485
488
491
496
499
500
499
495
492
488
486
487
488
489
490
489
491
492
494
495
495
497
499
498
496
493
491
488
486
486
487
488
488
489
490
493
499
502
501
500
500
500
499
499
500
502
504
503
502
500
498
498
496
497
498
499
500
500
498
497
497
497
496
496
495
494
495
496
497
498
499
502
503
506
507
507
507
504
500
501
499
498
497
500
502
502
504
504
505
505
503
502
502
503
503
503
505
504
502
500
500
501
502
504
505
503
503
504
504
504
504
504
502
500
502
501
501
504
504
506
506
507
506
507
508
506
505
504
502
500
499
501
503
504
505
504
505
506
508
508
505
506
509
511
512
511
511
511
510
509
509
510
512
515
515
511
510
508
508
507
506
504
502
504
503
504
506
506
507
507
507
508
505
505
504
504
506
507
507
507
506
505
504
505
505
504
505
507
510
512
511
513
512
512
511
510
509
508
508
508
510
513
515
515
515
513
512
509
508
506
505
504
504
505
505
504
505
508
511
512
515
517
518
519
519
518
519
519
518
517
514
515
513
511
509
507
506
508
507
506
506
505
505
506
508
508
510
510
509
509
511
513
512
512
512
511
508
509
509
509
508
508
508
508
509
510
510
511
511
510
510
512
515
515
517
518
519
519
518
519
519
520
519
519
518
517
517
516
515
513
510
510
509
512
516
521
524
524
524
525
526
529
533
536
540
541
540
538
536
535
536
537
537
536
535
531
531
530
531
533
534
536
535
531
528
526
530
527
526
527
526
527
526
525
524
522
520
515
515
513
510
508
507
504
499
495
493
491
488
487
489
493
495
499
500
499
499
496
496
498
496
496
495
494
494
492
493
493
492
492
491
490
487
487
489
490
492
494
496
497
497
495
490
489
491
494
496
495
491
488
487
491
497
505
512
520
529
535
541
547
555
566
576
591
605
615
625
634
642
653
666
679
686
694
705
716
730
746
761
765
758
745
725
705
686
663
639
616
597
584
574
568
564
563
565
565
565
566
570
570
565
560
553
547
538
528
518
506
494
483
475
468
462
459
457
455
455
452
451
449
447
444
443
440
437
435
435
435
438
438
438
440
441
440
438
437
440
439
439
439
439
438
437
438
438
440
443
444
444
446
447
448
448
451
452
453
453
451
448
448
449
450
450
454
457
459
459
457
455
454
453
456
459
463
464
463
463
464
465
467
471
474
476
477
475
472
471
473
474
476
478
480
480
481
483
486
489
491
490
488
485
483
482
482
480
478
477
479
480
482
485
490
492
496
497
496
496
495
495
495
496
498
498
499
500
499
499
500
502
502
503
502
498
494
492
493
495
496
498
500
503
507
507
507
510
512
514
515
515
516
516
519
522
524
526
526
526
525
524
524
526
527
528
529
529
529
532
532
534
535
536
536
536
536
536
536
537
537
539
543
546
551
555
558
559
557
556
556
557
556
555
553
553
555
556
557
560
563
567
568
569
570
572
574
574
575
577
576
575
573
573
576
575
573
570
569
571
568
564
563
563
562
559
557
554
550
548
549
552
554
557
560
561
562
561
558
555
549
546
544
541
540
537
534
531
529
527
523
520
519
517
517
515
513
510
505
502
499
495
491
490
488
486
484
483
481
478
476
472
471
469
468
466
464
463
463
462
459
457
455
455
454
451
450
451
451
452
452
451
452
451
450
449
448
448
448
449
450
451
448
448
449
449
449
448
449
450
452
452
452
453
454
454
454
455
455
453
454
455
458
459
463
464
463
461
457
458
459
462
464
464
467
467
468
468
467
468
467
468
467
465
465
465
464
468
472
474
473
474
474
474
476
478
479
480
479
479
479
479
480
480
480
481
484
489
490
491
489
489
487
488
488
486
485
483
481
482
483
484
486
486
490
490
490
489
488
489
491
493
492
490
487
483
481
480
481
482
483
482
483
485
486
487
490
491
492
493
492
492
491
489
489
490
493
497
498
499
497
496
496
496
496
497
499
498
494
495
497
501
504
505
507
507
506
504
503
503
502
503
503
501
500
498
496
494
495
499
503
504
504
503
503
500
500
501
504
507
508
508
508
506
505
504
504
504
503
505
505
504
503
504
503
501
500
498
494
493
492
493
495
495
496
494
495
496
496
497
499
502
504
506
509
509
507
508
508
510
511
511
510
508
509
506
504
504
504
504
505
504
504
503
504
506
509
512
513
513
512
511
510
510
509
504
503
502
501
501
501
504
507
510
512
510
510
510
507
506
506
507
507
509
512
513
514
514
511
511
509
506
504
502
502
503
505
505
506
505
504
503
504
505
509
512
512
512
509
507
504
503
503
503
505
505
506
509
510
512
513
514
515
515
516
515
513
512
510
510
509
509
509
509
509
509
509
511
511
511
513
514
513
512
514
514
515
517
518
515
512
509
507
507
509
512
514
515
514
510
505
505
505
506
505
505
504
503
499
499
502
507
510
511
512
510
508
510
510
512
513
515
516
516
515
515
513
513
513
514
514
513
512
512
512
512
510
510
510
511
509
507
505
504
504
507
509
510
509
509
508
510
510
511
510
508
509
509
508
508
507
510
514
519
523
524
524
522
520
518
513
510
508
508
510
509
510
511
511
512
512
515
515
514
515
513
514
516
517
521
524
524
525
526
528
529
532
535
538
537
538
537
536
536
537
536
536
536
534
532
532
536
538
540
542
543
541
537
532
528
526
526
526
526
525
522
521
524
526
529
527
525
520
516
514
512
510
505
502
501
499
497
495
492
493
493
495
494
490
490
491
493
493
493
493
491
492
491
490
491
490
492
493
495
498
499
498
496
494
494
492
492
492
490
490
488
488
490
491
492
494
494
492
490
489
487
491
497
501
512
520
528
536
543
551
557
567
578
590
601
611
619
629
638
647
655
666
679
687
697
707
722
739
756
770
772
764
748
726
704
680
657
632
607
586
571
563
560
559
561
563
566
564
561
558
555
551
547
539
532
522
512
506
498
494
492
489
486
480
474
468
463
455
449
447
446
445
442
439
438
438
440
440
440
440
441
442
440
436
437
435
434
433
434
435
435
436
436
438
440
442
444
444
445
447
448
448
448
450
454
452
449
447
446
446
448
452
456
459
460
460
458
455
453
456
458
462
464
464
464
462
463
465
468
469
467
467
467
467
470
472
474
473
473
473
473
475
476
478
480
481
484
484
483
483
483
483
483
482
481
483
483
483
483
486
488
487
488
489
491
491
492
493
492
494
494
495
494
491
492
492
495
497
498
500
503
502
502
504
505
505
505
506
508
509
508
510
514
517
519
519
520
519
516
514
512
512
511
511
515
516
520
524
523
523
522
524
526
528
530
533
534
533
532
533
535
536
537
538
540
541
543
546
547
549
549
548
547
545
546
544
545
547
548
549
548
548
550
555
560
563
567
570
571
572
572
572
572
572
574
572
571
570
569
572
573
572
574
574
574
573
570
569
568
568
566
566
566
564
564
564
565
567
567
568
568
563
561
561
560
556
555
553
551
550
545
540
536
533
532
529
527
524
522
520
517
514
511
507
504
498
494
489
488
488
488
488
487
484
483
480
480
479
475
472
470
467
463
459
457
455
454
453
452
455
454
452
450
449
449
450
450
450
449
448
444
442
441
441
441
441
442
442
442
442
444
447
450
452
454
455
456
455
454
453
453
453
453
451
451
448
446
446
447
448
448
449
450
452
454
455
458
460
464
467
467
466
464
461
462
462
463
466
467
468
467
467
467
466
467
471
474
476
477
478
476
477
476
474
472
472
471
467
465
465
464
468
473
477
480
482
483
483
484
487
486
485
486
484
482
479
478
480
483
484
482
481
478
475
476
477
481
483
485
487
486
485
484
486
487
489
492
493
491
489
488
488
487
486
486
485
485
485
484
487
489
492
494
494
494
492
492
492
492
492
493
496
498
497
496
495
496
498
502
506
505
505
503
502
501
501
501
499
497
496
492
488
486
489
491
493
495
498
500
500
500
503
504
506
509
510
508
505
502
501
500
503
506
508
506
503
503
502
500
499
498
497
499
501
504
502
503
504
505
507
508
507
506
504
505
506
508
509
508
509
508
507
508
508
512
513
515
515
512
510
508
507
508
509
511
512
509
508
504
502
500
500
503
504
504
505
508
509
510
512
513
512
512
512
513
513
512
512
513
513
512
511
509
508
508
505
504
504
505
507
506
506
505
505
505
507
509
511
511
512
513
512
511
509
508
505
503
500
499
499
500
502
506
511
514
516
515
513
511
510
508
510
512
511
511
511
510
510
510
511
511
511
511
511
512
512
510
510
508
508
507
507
506
508
509
510
511
513
515
517
518
517
517
516
515
513
515
514
511
510
511
511
513
516
517
519
519
517
512
510
508
509
511
513
514
514
515
515
515
517
518
519
520
520
523
523
524
523
522
525
525
526
526
527
527
528
527
527
527
529
532
533
534
533
531
528
527
527
526
528
530
531
531
529
528
527
526
524
523
523
520
517
513
509
504
500
499
497
496
497
499
499
498
497
497
496
494
494
495
496
497
498
497
498
499
498
500
502
504
507
508
508
506
504
502
501
499
495
491
489
487
488
489
491
493
492
491
491
490
491
491
494
496
495
493
488
487
484
482
483
486
491
499
510
523
534
545
555
567
580
592
605
618
628
637
644
653
660
666
673
678
686
694
702
714
725
731
727
716
699
676
652
627
604
581
558
539
525
515
512
512
514
519
524
529
531
532
533
530
527
523
520
518
515
515
513
510
505
500
494
488
483
479
476
472
469
469
469
467
464
463
464
461
457
454
451
450
449
447
445
444
443
446
448
450
451
451
450
449
449
449
452
455
458
459
460
463
466
468
470
470
469
467
462
463
464
464
463
463
461
459
459
461
465
469
472
474
477
477
477
477
477
478
477
476
475
473
472
472
477
483
487
489
488
486
484
484
486
486
487
488
487
488
488
487
488
491
493
496
498
500
501
502
503
502
500
499
498
495
495
494
496
495
496
496
496
497
500
502
504
503
504
504
504
502
500
500
499
500
503
506
510
513
517
521
522
520
519
520
520
521
523
525
523
521
520
522
523
524
525
525
523
522
521
521
524
529
531
532
533
533
532
532
534
537
539
541
542
542
543
544
546
548
551
555
555
555
553
551
552
555
558
563
567
571
573
575
575
573
571
569
567
567
567
571
572
573
575
575
579
581
583
583
582
580
580
579
579
578
577
574
570
568
569
573
575
576
578
579
579
578
577
574
571
571
569
568
563
560
557
555
555
556
559
560
556
551
546
542
539
535
528
521
518
515
512
510
509
507
508
504
502
498
494
491
487
483
478
473
471
468
464
461
460
460
458
458
457
454
451
450
448
447
446
445
444
444
441
439
439
439
440
440
440
439
436
435
437
439
440
439
440
440
438
437
437
438
439
441
444
445
445
445
444
443
443
445
446
448
449
448
444
442
443
445
446
449
452
454
456
457
456
455
453
451
450
450
449
446
445
446
447
449
454
458
459
459
457
457
457
457
458
460
460
462
461
462
464
465
466
467
467
467
466
466
467
468
468
468
469
468
467
467
470
473
475
476
476
476
477
478
479
478
475
474
473
473
473
474
475
473
477
480
481
482
482
482
484
484
486
486
486
483
482
481
480
481
483
486
490
492
493
493
492
492
491
494
495
497
497
494
494
492
494
495
499
503
504
504
504
503
502
500
498
495
494
495
494
491
490
490
490
492
495
496
497
498
499
498
497
496
495
496
498
497
495
492
492
492
495
497
501
504
504
504
504
504
503
502
501
500
499
498
498
499
500
503
506
506
504
502
501
500
500
502
503
502
500
499
499
499
502
505
508
509
509
509
510
509
508
507
507
506
505
504
502
501
503
504
505
505
503
502
503
504
503
504
504
504
503
503
501
498
498
499
500
504
505
508
510
509
509
508
505
504
503
503
503
503
503
504
504
507
508
508
508
510
509
510
510
510
510
510
509
508
507
504
503
502
504
507
507
509
507
505
503
503
503
504
506
507
508
507
507
507
508
511
511
511
511
508
506
507
508
510
510
511
512
514
513
513
513
513
512
512
512
512
512
511
511
509
508
511
511
509
505
504
504
505
508
511
513
514
513
514
515
519
521
524
527
528
529
529
529
531
530
534
535
534
534
531
532
532
531
531
529
527
527
524
524
525
528
530
532
532
530
531
533
533
534
535
537
538
537
535
530
526
522
517
513
511
510
508
505
504
502
500
499
498
495
490
486
484
484
486
487
490
492
494
496
497
497
496
496
498
500
500
499
497
495
494
495
496
498
499
496
497
499
499
500
498
497
495
494
495
494
492
491
491
491
490
487
486
487
488
489
494
501
510
520
528
536
543
549
559
571
584
601
613
622
629
639
647
657
669
678
685
691
701
715
727
742
753
756
752
742
725
703
681
658
633
613
595
579
569
563
561
559
557
556
556
557
557
555
552
547
543
540
535
530
523
516
510
506
501
496
489
481
473
468
465
463
460
457
451
447
442
436
433
435
438
442
445
447
447
445
442
443
444
443
441
442
444
445
442
440
440
442
446
450
451
451
451
449
448
448
448
448
448
450
452
451
449
448
451
454
457
461
461
463
460
457
457
458
460
462
462
463
463
462
465
468
473
476
478
479
476
474
476
476
474
473
473
476
475
475
476
477
479
482
485
489
490
490
489
488
489
489
488
487
487
488
487
487
491
493
495
498
498
498
497
497
497
497
497
499
501
501
500
500
503
505
507
508
507
505
504
505
506
506
506
507
509
511
511
509
511
513
514
514
513
513
512
512
512
511
513
515
516
517
517
515
514
516
521
526
531
536
536
536
535
535
535
537
543
545
548
547
545
544
544
544
544
545
546
547
548
548
550
553
555
556
558
557
557
556
560
561
565
570
572
573
573
574
575
574
573
572
571
571
570
570
567
563
563
564
566
567
568
567
566
567
566
568
568
568
570
569
566
564
563
564
564
565
564
563
562
560
559
556
552
548
545
541
535
529
524
520
519
518
517
516
513
508
503
499
498
497
496
496
496
497
495
492
490
487
484
484
481
479
476
474
474
473
469
466
463
460
456
452
450
449
448
448
448
446
444
444
445
444
443
444
445
445
443
440
440
441
443
446
448
448
447
446
448
447
447
446
446
448
449
449
449
449
449
449
451
454
457
459
459
458
456
454
452
450
450
449
447
448
448
449
452
458
462
465
468
469
470
471
472
472
475
475
475
474
473
473
472
473
473
474
475
473
473
474
475
476
476
476
477
475
473
472
473
476
479
481
482
481
481
480
480
480
479
480
480
479
478
477
478
482
484
487
488
488
491
492
491
490
489
489
489
488
489
487
487
490
492
494
496
496
496
494
493
493
494
494
492
492
490
488
486
487
487
489
491
493
496
498
499
501
501
498
494
493
494
494
496
498
500
501
500
503
505
505
505
504
503
502
500
502
503
500
496
492
489
490
492
495
497
500
500
500
502
502
499
498
497
496
494
493
496
498
501
504
508
509
510
511
510
508
507
504
502
500
501
501
500
501
503
505
507
508
510
509
507
507
506
507
507
507
504
502
501
499
498
500
501
503
504
506
506
505
505
504
505
506
508
509
508
508
508
509
510
509
512
515
516
518
518
518
517
516
515
515
516
516
515
512
509
508
507
507
507
508
508
507
505
505
507
509
511
512
511
509
508
508
508
512
512
513
512
513
513
513
514
513
511
510
508
507
507
507
508
510
513
514
516
515
512
511
510
509
510
511
510
508
503
501
501
502
504
507
510
514
516
518
517
516
516
516
518
519
519
517
515
512
508
507
507
508
509
509
510
513
514
516
516
516
515
512
511
512
512
513
514
516
519
520
519
518
517
516
518
517
514
511
507
504
502
503
506
508
512
516
517
519
521
524
526
528
532
534
536
537
539
537
536
537
536
536
533
529
526
524
526
528
527
527
526
526
525
525
526
525
526
529
531
535
535
537
537
535
535
533
530
527
523
522
519
517
515
514
512
512
510
507
505
503
500
499
498
496
494
491
489
490
492
495
497
499
499
500
498
496
496
495
493
491
491
490
487
488
491
494
494
494
494
494
493
493
494
495
497
497
497
496
494
492
490
489
489
488
486
484
484
483
485
490
499
510
523
534
542
545
550
560
572
586
601
617
627
638
645
652
662
673
686
696
707
719
730
744
761
773
777
776
766
748
725
703
678
653
632
616
604
592
583
577
571
570
568
568
568
566
563
555
547
541
533
526
520
514
508
501
494
489
483
476
472
467
461
456
453
451
448
446
445
443
440
436
435
432
432
433
436
439
441
440
440
439
434
429
428
428
429
428
429
431
432
433
435
438
440
440
440
441
443
444
444
442
440
440
440
440
440
444
448
453
456
459
460
458
457
457
459
459
459
460
459
458
456
458
462
465
467
469
469
469
471
472
472
470
471
472
475
476
473
472
471
471
472
475
476
478
479
479
479
479
479
481
483
486
487
486
485
486
487
489
492
492
492
494
495
495
495
494
492
492
489
488
485
483
482
481
481
485
492
500
508
514
519
519
519
518
518
519
518
516
514
514
516
516
516
516
516
516
517
518
519
522
521
520
521
521
521
524
526
528
530
531
532
535
537
539
539
540
539
539
538
538
539
540
541
542
543
545
547
549
549
552
554
556
559
558
559
560
560
559
559
561
562
565
566
565
562
562
564
568
570
573
574
575
575
573
571
570
572
572
574
576
574
572
570
566
565
566
566
563
562
560
558
558
561
563
566
567
567
566
563
559
555
552
548
542
540
540
536
533
533
533
529
526
525
522
519
515
512
508
504
502
500
498
495
489
484
481
478
477
476
473
471
467
465
464
464
463
462
462
463
461
458
456
455
452
451
451
450
451
451
451
451
449
447
443
441
441
440
439
440
441
444
448
451
453
454
455
454
453
452
452
452
452
452
451
450
450
450
452
455
459
460
459
458
457
459
460
460
462
461
462
462
460
459
460
462
465
467
470
470
470
469
468
468
468
469
468
467
465
466
470
473
476
479
480
480
479
480
481
479
480
481
481
481
479
477
480
484
488
490
492
494
494
494
492
490
486
482
480
477
473
472
473
474
476
481
485
487
488
487
487
488
487
487
487
485
486
487
486
484
484
485
485
486
484
484
484
485
487
489
488
488
488
489
488
487
487
487
492
496
499
500
501
501
499
496
495
494
495
496
495
493
489
489
491
496
499
500
500
499
500
501
503
503
499
496
495
495
492
492
495
499
500
500
497
499
497
497
498
498
497
496
496
497
496
497
497
496
499
501
505
505
505
504
504
503
502
501
503
504
504
502
499
498
499
500
503
505
504
502
499
497
496
499
501
503
504
503
503
503
504
506
509
513
515
511
509
509
508
504
503
501
501
503
503
501
500
500
501
501
504
507
506
504
502
502
503
503
504
506
508
506
505
506
507
508
512
513
513
512
512
512
510
508
508
506
506
506
506
507
507
510
513
515
515
515
514
513
513
512
511
512
512
512
510
509
508
510
512
513
516
514
514
516
517
517
516
516
516
515
514
512
511
513
513
515
518
519
518
516
513
511
510
509
510
508
507
505
505
507
510
512
515
517
517
518
517
516
517
516
516
515
514
514
511
511
513
516
523
529
535
538
539
539
539
538
540
542
543
543
542
535
528
524
523
525
527
527
527
526
526
527
529
529
529
529
527
526
526
525
524
524
525
528
529
529
527
526
522
519
516
512
509
508
505
500
499
497
496
497
500
501
502
500
496
496
496
496
494
492
487
483
482
484
489
495
500
504
505
506
508
509
509
505
502
503
503
502
500
500
500
501
502
503
503
501
498
494
490
490
490
488
485
481
479
478
479
481
488
498
511
524
537
547
554
561
573
585
597
608
617
624
629
637
642
650
661
669
678
687
697
706
717
728
735
734
727
711
688
664
640
617
594
575
557
544
535
529
526
527
531
535
535
535
534
530
526
522
520
518
519
519
518
515
512
506
500
499
497
492
485
477
470
465
462
458
455
452
449
447
446
444
443
444
446
448
449
447
446
444
444
444
444
446
446
446
446
446
445
447
449
453
455
455
455
457
460
463
465
465
467
468
468
468
468
469
467
467
467
467
467
466
466
466
467
468
473
474
475
474
473
474
474
475
473
472
473
474
475
474
473
474
475
476
476
478
480
481
483
486
487
487
487
488
489
488
490
492
492
490
491
492
490
488
486
486
487
489
493
494
496
495
495
497
499
501
504
508
511
512
512
513
512
512
510
508
509
507
506
505
506
507
507
509
515
521
523
524
523
526
530
532
531
528
524
524
522
523
523
522
522
523
525
526
527
528
527
527
529
531
534
532
532
534
535
537
540
544
547
547
549
551
553
555
557
556
557
556
555
555
556
558
560
564
567
570
572
573
576
576
577
578
578
576
575
572
571
571
573
575
579
582
582
582
582
582
582
581
581
580
579
578
576
577
579
581
579
577
576
575
573
575
575
573
568
564
561
557
554
551
550
548
547
545
542
541
539
536
529
525
523
521
516
512
507
503
499
498
499
499
500
499
494
489
486
481
475
470
467
465
464
463
461
460
458
459
461
460
457
456
454
451
447
444
441
439
437
436
433
432
434
438
439
441
442
443
442
441
440
441
443
444
445
446
446
444
444
444
442
441
442
443
444
444
444
441
441
441
442
443
444
443
444
446
448
451
453
455
455
453
453
452
452
455
454
453
451
451
450
448
450
453
456
460
461
462
463
465
465
465
463
461
461
462
461
462
462
464
466
466
470
472
474
473
472
470
471
473
472
471
471
470
468
469
471
476
480
483
485
486
485
484
481
480
480
480
479
479
478
477
478
480
483
485
487
486
484
483
482
480
480
483
485
487
489
488
488
489
491
493
495
496
498
497
496
494
492
489
488
489
491
492
490
489
491
491
494
496
499
502
502
504
504
503
502
502
503
502
500
498
496
496
497
499
499
499
498
496
496
499
498
497
497
497
495
493
493
492
493
496
502
506
508
511
511
509
508
507
506
506
505
504
504
504
506
507
507
508
509
508
506
505
502
499
499
500
501
502
499
497
499
503
504
506
507
507
505
504
504
503
503
503
503
504
504
502
503
504
505
505
507
508
511
512
512
512
511
508
506
503
502
502
502
504
508
508
507
507
508
507
507
508
509
509
509
507
504
502
498
496
499
503
507
509
510
508
507
507
508
509
509
508
508
509
509
508
508
508
510
512
518
519
519
517
514
512
514
515
515
513
509
507
505
504
506
509
510
511
513
513
513
512
511
510
508
506
504
505
505
508
511
516
522
528
532
535
537
539
540
541
541
541
539
537
533
529
527
524
524
524
528
531
531
532
531
530
528
526
526
524
525
525
524
524
524
525
526
527
528
527
524
520
516
512
511
510
509
507
503
500
498
499
500
503
505
504
502
501
500
500
498
496
494
490
487
485
484
485
487
490
495
497
499
500
502
501
499
498
497
496
494
488
485
484
487
491
495
497
500
500
499
498
498
497
496
496
492
489
485
481
481
485
491
499
510
521
532
540
547
555
565
574
585
599
611
620
631
639
649
658
668
679
688
696
707
717
727
736
739
734
723
707
688
670
652
632
611
593
580
570
565
563
562
563
561
559
557
553
547
540
533
528
525
523
522
519
515
512
508
503
498
492
486
479
473
469
466
464
460
455
453
447
440
436
434
433
436
440
443
443
442
439
435
435
436
439
444
449
454
455
456
455
455
455
452
450
449
446
443
440
438
440
442
445
448
451
452
452
454
456
457
459
461
463
462
461
461
463
466
468
472
472
470
467
466
468
470
471
473
473
474
473
472
472
472
473
474
476
476
479
481
481
481
483
486
486
488
487
486
485
486
488
490
492
492
490
488
487
487
486
487
489
488
489
489
489
491
494
498
501
504
504
500
499
497
497
500
503
505
507
508
510
509
507
508
508
510
513
515
515
515
516
516
517
515
513
512
510
510
511
514
518
520
520
522
524
525
525
525
525
526
527
529
531
533
535
538
541
543
544
545
546
545
545
543
542
541
541
542
543
545
547
548
550
552
555
557
559
563
564
565
564
562
563
561
561
562
561
563
563
566
570
572
572
573
575
573
573
574
575
574
575
574
573
571
570
567
566
568
569
572
575
575
572
570
567
563
561
560
560
557
550
544
542
542
541
541
540
539
538
535
534
531
529
526
525
524
522
519
515
515
514
510
505
500
497
492
488
484
481
479
476
473
472
471
469
467
466
465
463
463
464
464
461
459
460
460
457
454
454
454
452
448
447
448
449
449
451
452
452
449
448
448
450
450
448
445
445
442
440
440
443
445
447
451
455
453
454
455
454
452
452
453
454
454
454
452
452
455
456
458
462
464
464
464
464
463
461
461
459
459
456
455
456
460
465
468
470
471
470
472
474
474
474
473
470
468
467
467
468
470
474
478
480
482
483
484
483
482
482
483
484
482
480
479
476
474
475
477
478
481
483
484
483
482
481
478
479
479
478
479
480
480
481
484
488
491
493
495
495
494
493
492
492
492
493
494
492
491
489
489
489
490
491
494
497
500
501
501
501
502
501
501
499
498
494
489
488
488
490
493
497
499
501
501
502
500
499
500
501
504
505
504
500
498
497
497
500
503
504
503
503
502
501
501
501
500
499
498
497
496
496
497
498
501
504
505
506
507
508
510
511
510
508
505
502
499
499
501
504
507
510
508
506
504
503
501
499
499
498
498
500
499
499
501
504
504
507
507
509
512
514
514
515
515
513
512
512
512
510
506
503
502
504
506
508
508
507
508
507
505
505
504
506
506
504
503
504
506
508
511
514
515
515
513
513
512
510
510
510
510
512
510
507
506
505
507
508
509
509
508
508
507
508
509
508
507
506
505
505
508
509
512
516
518
518
518
517
515
512
512
513
513
514
514
514
512
511
509
509
511
512
513
515
518
519
519
517
514
511
511
510
507
506
507
510
512
515
517
517
516
515
515
515
513
510
506
501
499
497
496
496
500
504
506
509
512
515
517
516
515
516
516
517
517
516
516
518
519
517
515
515
515
514
513
512
511
512
511
511
509
507
504
504
504
507
510
513
515
516
515
517
517
515
514
512
512
513
512
511
509
509
509
508
512
516
514
512
510
509
512
514
519
521
524
525
525
527
531
531
532
537
541
542
543
543
540
538
535
531
528
528
527
529
533
536
537
542
545
543
541
536
531
529
527
528
526
528
528
525
523
523
522
520
517
513
510
507
504
500
497
498
499
499
499
497
495
494
494
493
492
492
491
491
492
495
496
496
495
495
497
497
496
492
490
490
491
492
493
491
489
489
493
496
496
498
499
498
496
493
492
493
494
495
494
492
490
485
481
480
482
487
494
503
512
522
532
539
547
555
568
582
596
611
624
632
639
647
655
664
673
679
687
699
711
728
745
764
775
775
768
758
738
716
694
668
644
624
606
592
584
578
576
575
575
575
572
571
567
559
552
548
542
533
525
518
510
502
496
491
485
480
472
467
461
455
451
448
445
442
438
435
433
431
431
433
435
437
439
438
436
433
431
431
434
436
436
435
436
437
435
433
433
431
431
431
430
430
430
432
435
440
441
443
444
442
441
443
445
447
448
448
450
454
455
455
457
457
457
456
457
457
457
457
457
461
463
467
468
468
470
471
472
471
471
470
468
467
465
463
465
467
467
468
470
472
476
477
477
477
478
479
480
481
481
482
481
481
484
489
491
495
497
495
494
494
493
494
495
494
493
493
494
496
499
503
505
507
508
508
505
504
504
502
501
499
499
498
499
499
501
504
508
512
513
513
515
515
515
516
516
516
516
516
516
518
519
520
523
524
525
525
527
527
526
527
530
532
534
535
536
536
535
535
536
537
539
541
544
547
548
550
551
554
554
556
556
558
558
557
555
555
557
562
565
567
566
567
568
567
568
568
568
568
568
567
564
564
566
567
568
567
568
567
566
567
570
572
571
569
568
568
568
569
572
572
572
570
570
570
568
564
561
556
551
549
547
543
537
533
530
529
527
528
531
532
530
529
526
521
516
511
504
500
499
496
492
489
487
486
484
483
482
480
479
478
475
473
471
468
467
466
463
458
455
453
455
457
457
458
457
457
456
454
451
449
450
454
455
455
453
452
450
448
450
450
451
454
454
453
454
454
454
452
451
450
451
452
455
459
460
461
464
463
462
460
459
457
457
457
457
458
458
459
462
464
464
462
462
462
464
465
467
469
471
472
472
471
471
469
469
470
472
474
479
482
481
480
478
475
475
475
476
478
480
480
480
478
478
481
483
485
484
480
479
476
474
473
472
473
473
472
472
474
479
483
488
492
495
495
494
492
491
488
487
487
487
486
483
481
481
484
487
489
491
492
492
493
494
494
491
489
489
487
487
483
483
485
488
490
492
495
495
495
494
496
498
499
501
500
499
495
492
491
491
492
494
497
498
497
497
496
496
497
496
495
493
494
494
494
495
497
500
500
499
499
498
497
496
498
498
497
499
500
501
499
496
497
498
499
500
502
505
508
508
509
508
506
505
504
504
503
501
500
497
496
495
496
497
498
499
501
505
507
510
513
516
516
515
512
510
510
510
509
508
506
504
504
502
501
501
500
501
504
503
499
498
502
504
507
509
511
512
512
510
509
509
510
511
512
511
508
507
505
505
506
508
510
512
511
509
505
504
505
507
506
507
508
510
507
506
506
507
508
507
507
506
506
508
510
511
513
514
513
512
510
512
514
514
517
517
518
518
517
517
516
515
515
513
513
512
510
505
503
504
508
511
513
515
512
508
506
504
505
507
510
512
512
511
511
510
509
510
510
510
512
512
510
510
509
511
513
513
513
513
513
512
511
512
516
518
519
519
517
516
513
513
513
514
514
514
513
511
508
507
507
508
511
513
516
513
512
512
512
514
515
518
519
521
521
521
520
523
529
535
541
543
543
542
537
534
531
531
532
532
531
527
527
527
528
530
532
535
535
535
536
536
536
536
535
535
534
532
530
527
527
528
527
527
526
525
521
517
515
511
507
504
502
500
499
498
498
499
499
499
501
503
502
500
499
499
499
497
496
496
495
493
489
487
486
487
490
495
498
501
500
498
496
494
494
495
496
497
499
500
501
502
501
502
500
496
492
487
483
481
482
485
487
487
487
489
496
506
516
527
536
543
548
556
566
577
589
601
614
624
632
640
649
660
671
682
691
697
707
717
730
743
747
743
729
709
686
662
637
611
588
568
553
544
540
538
537
537
540
542
541
541
539
534
526
521
518
515
514
512
512
509
504
503
500
495
487
479
472
467
462
456
452
451
453
453
452
453
450
449
450
450
448
448
446
443
442
444
444
444
447
448
449
451
453
452
449
447
447
447
448
448
449
450
449
448
450
454
456
461
466
469
470
470
468
468
466
463
462
461
459
457
458
458
459
460
464
467
467
467
466
468
469
469
469
471
474
480
481
484
487
489
488
490
491
491
490
488
486
482
481
482
484
487
489
488
488
489
492
495
497
495
495
496
497
497
499
501
502
503
504
504
502
502
504
506
508
511
511
512
514
513
512
512
511
509
506
505
503
502
502
504
507
511
511
511
510
511
513
516
520
523
525
526
526
525
526
524
522
523
524
525
524
526
526
526
528
530
531
535
537
536
534
536
541
546
549
549
546
544
545
548
549
549
550
550
551
551
552
554
558
560
563
563
563
563
566
568
570
571
575
576
577
579
578
577
577
578
580
581
581
581
580
579
581
583
582
580
578
576
574
571
568
567
569
572
575
574
572
569
566
563
560
557
555
555
551
551
549
547
545
544
543
542
540
534
529
524
520
519
519
519
517
518
518
513
508
507
504
500
498
496
492
487
482
476
472
467
463
462
463
461
460
459
460
459
457
457
457
461
467
471
468
462
454
450
446
441
435
428
425
426
428
431
433
437
439
438
436
435
436
436
435
434
434
434
435
438
440
445
448
448
445
443
443
444
445
447
449
450
449
447
447
449
453
455
457
458
456
453
450
447
446
448
453
457
461
462
459
457
459
461
464
467
467
466
465
463
464
463
464
463
464
464
464
465
468
470
473
474
475
477
476
475
474
476
477
478
476
473
471
469
472
473
473
476
477
480
479
480
480
480
479
480
480
480
482
483
484
483
482
483
483
486
491
495
498
499
500
499
495
490
486
485
483
483
484
487
489
491
493
495
496
494
493
492
492
491
491
492
493
493
492
492
491
493
496
499
501
500
496
495
495
499
503
508
510
510
506
504
503
505
504
505
505
501
499
499
500
500
499
497
499
500
499
500
500
502
502
502
505
508
510
508
508
507
506
505
506
505
503
498
495
494
494
495
497
500
503
504
505
507
507
507
507
508
509
508
506
504
502
501
499
499
500
501
502
502
502
501
500
499
499
500
501
500
499
501
503
504
505
505
507
507
508
508
508
508
507
507
506
504
504
505
505
506
508
510
509
508
507
508
508
508
509
511
512
512
512
512
514
516
516
517
516
514
514
514
514
514
516
515
515
514
510
507
504
503
503
504
508
512
513
513
513
511
510
510
511
511
511
509
506
506
507
511
515
519
522
525
529
529
529
529
529
530
530
529
527
527
530
530
531
532
531
530
529
528
526
526
527
527
527
525
523
522
524
526
530
534
537
538
536
534
532
531
525
519
515
513
509
502
497
494
494
495
494
496
497
499
498
497
496
494
494
493
490
487
484
482
482
483
485
486
490
492
491
492
494
495
496
496
496
496
494
492
492
494
495
495
496
497
495
493
493
495
494
494
493
492
491
488
486
487
492
498
506
515
525
534
542
552
561
572
578
587
595
606
615
622
630
636
643
652
661
668
676
684
692
703
719
730
732
725
710
690
666
644
623
600
580
562
547
539
533
531
532
535
538
539
537
533
527
522
520
515
513
514
515
513
509
507
505
503
501
498
492
486
478
471
468
467
465
463
460
456
454
453
452
451
451
450
449
447
444
441
439
438
440
443
448
451
452
456
456
457
456
456
454
452
454
454
453
454
457
461
462
463
460
460
461
462
462
462
464
466
467
465
460
457
458
458
460
463
466
468
472
475
474
473
475
476
477
479
480
479
478
479
480
482
483
484
483
483
483
482
483
486
486
484
481
478
477
478
482
484
486
487
489
490
492
494
497
496
494
495
495
495
493
492
492
492
494
495
498
500
503
504
503
501
500
500
499
499
499
499
500
503
504
503
505
507
508
508
509
510
512
513
513
513
514
516
517
517
518
520
521
524
527
526
525
526
526
527
529
533
535
537
540
541
541
541
540
541
543
543
543
542
542
544
545
546
547
547
547
547
547
550
554
560
562
564
563
561
558
557
559
563
566
568
570
571
571
570
570
572
571
571
573
572
571
570
570
571
571
570
570
572
571
569
567
567
568
567
566
567
567
565
567
567
567
567
566
565
563
559
557
558
558
556
554
552
549
547
542
536
531
527
523
519
517
513
510
505
499
493
489
489
487
486
485
484
481
478
476
472
470
468
465
463
462
460
460
458
457
454
452
451
448
446
444
443
443
444
444
444
444
445
446
446
448
448
445
444
444
444
445
445
447
449
448
446
445
447
448
452
451
449
449
449
449
450
451
452
452
452
454
455
453
451
451
451
452
454
455
455
455
455
458
462
463
464
463
462
460
458
457
456
455
456
459
462
463
464
465
467
467
470
471
472
471
469
469
470
471
472
472
473
475
474
472
472
473
475
476
478
479
479
479
478
478
480
484
484
484
485
485
484
484
485
486
484
483
485
485
485
485
486
490
492
495
495
495
494
493
491
491
491
491
491
491
492
491
492
494
496
497
497
496
494
493
492
492
494
497
500
502
501
496
494
494
496
497
497
500
501
499
496
494
492
493
493
494
495
493
492
491
493
495
497
500
503
504
504
504
504
503
503
502
500
500
499
498
497
499
501
504
506
505
504
503
504
503
503
503
503
503
503
500
499
499
501
502
504
507
508
509
510
512
512
510
507
505
508
511
511
509
507
506
504
501
503
502
503
504
501
499
499
497
498
497
497
498
500
503
505
505
508
511
511
509
508
508
507
505
504
503
502
500
500
499
502
506
508
508
505
504
503
505
505
506
507
508
506
504
504
504
504
505
504
506
507
507
508
510
510
511
510
510
511
512
511
512
512
514
517
517
518
521
523
522
520
517
515
511
509
506
505
504
502
503
504
508
510
510
510
509
508
508
509
511
513
515
515
516
516
515
515
516
516
516
515
515
513
509
506
505
504
505
508
509
509
508
507
508
510
512
514
516
519
520
519
519
518
517
516
517
519
523
523
523
525
529
534
537
539
539
539
540
539
539
537
537
538
539
539
539
539
539
540
540
540
539
538
535
530
527
527
527
529
529
529
525
523
523
523
523
524
522
521
518
516
514
514
512
511
508
505
502
499
499
496
494
492
491
491
489
488
488
491
495
497
497
498
498
495
492
492
493
496
500
501
502
500
499
499
499
499
499
496
494
491
489
488
489
490
492
492
492
490
486
483
483
486
488
493
501
510
521
533
543
551
559
569
578
587
599
611
622
632
641
647
655
662
671
677
685
697
709
723
742
758
763
760
749
733
714
697
677
651
628
609
594
582
577
575
575
578
578
574
566
559
553
548
543
537
531
525
519
511
505
503
499
495
490
484
478
473
468
467
467
464
460
456
453
450
445
443
440
438
439
440
440
440
439
436
433
432
432
431
429
427
425
425
428
431
435
439
443
445
447
450
452
452
451
450
451
450
448
446
444
444
445
448
451
454
457
459
460
460
460
462
463
464
462
462
463
463
467
469
469
470
469
468
467
465
467
469
471
473
472
472
472
475
479
480
480
480
480
481
482
481
482
482
483
485
486
488
489
488
487
486
486
488
491
493
493
493
492
491
492
494
494
496
498
499
497
497
497
498
503
507
508
506
505
506
507
507
506
506
505
505
504
505
510
512
516
518
521
520
520
517
516
516
517
515
515
516
515
513
513
515
517
519
523
525
528
529
530
530
530
531
533
533
534
533
534
535
538
542
549
553
556
555
553
553
555
556
556
556
557
559
558
556
556
558
560
563
566
565
565
564
564
563
561
559
558
558
557
557
558
561
565
567
568
568
567
567
567
568
570
572
570
569
568
565
562
561
561
561
560
559
556
555
552
551
551
553
554
553
550
546
542
537
535
537
537
537
536
533
529
525
519
512
507
506
504
501
497
493
488
486
486
486
487
487
486
484
483
482
480
477
475
471
468
467
465
462
460
458
457
457
457
456
455
453
452
452
451
451
449
447
443
438
434
434
437
444
448
450
451
451
451
452
455
457
457
457
455
452
450
451
451
452
454
454
456
457
457
455
453
454
455
459
460
460
460
463
465
468
472
477
481
481
479
478
479
479
476
475
474
471
468
466
467
471
472
475
476
478
478
476
478
481
483
484
483
482
476
474
472
472
473
474
474
475
476
476
476
478
481
484
486
484
483
481
480
482
483
485
484
483
483
483
483
485
484
483
483
484
485
485
483
483
485
488
491
494
496
497
497
493
488
487
488
487
487
487
487
486
487
491
492
494
499
503
505
506
504
501
500
499
497
496
498
499
499
499
499
498
498
499
499
499
498
497
496
497
497
497
495
494
493
492
492
492
492
495
496
495
492
489
490
490
491
493
496
498
498
495
495
496
497
497
499
500
501
502
503
503
503
504
504
504
502
502
500
499
502
505
504
504
502
503
504
504
504
503
503
504
506
504
503
501
504
504
501
501
503
506
510
511
512
511
512
512
513
512
509
506
503
502
504
508
511
513
512
511
510
507
505
504
504
503
503
502
501
500
500
502
503
507
510
511
511
511
512
512
512
512
511
508
506
503
502
503
504
505
508
510
512
513
512
512
510
510
511
514
513
511
508
507
508
510
512
512
510
509
506
505
506
507
508
509
508
505
505
507
509
511
512
512
512
512
511
512
511
509
507
508
511
512
511
508
507
505
504
505
505
509
513
517
520
521
521
519
516
513
512
511
509
507
510
511
511
508
508
508
508
510
511
513
513
515
516
516
514
512
510
509
511
511
510
511
512
515
520
524
527
532
535
538
540
541
540
536
531
530
531
533
533
531
529
529
530
530
530
531
530
528
526
526
527
527
527
524
524
526
528
530
529
529
527
524
524
524
524
522
519
518
518
519
519
516
511
508
507
508
508
505
504
502
499
497
497
497
495
496
496
495
490
486
486
488
489
491
491
490
489
488
489
491
492
494
496
498
497
497
496
497
499
499
499
497
495
492
489
488
487
488
489
490
492
493
494
495
499
508
519
531
541
550
554
558
563
569
580
595
609
620
629
638
644
652
663
673
683
693
704
716
730
744
752
752
745
734
714
692
671
649
626
608
594
583
575
567
561
559
558
557
558
560
560
555
551
546
541
536
531
524
517
512
506
497
488
481
474
468
466
463
458
454
454
451
449
448
446
445
444
441
439
438
438
439
438
439
438
436
434
434
435
436
437
437
438
439
441
444
446
446
447
449
450
449
449
451
454
454
454
454
454
454
453
455
455
455
455
455
457
458
457
459
461
462
463
464
466
467
467
464
463
462
464
465
470
472
470
467
466
468
471
476
481
484
484
482
480
479
479
480
480
483
486
488
491
493
494
494
492
490
489
489
487
484
483
482
485
490
492
493
493
494
496
499
501
502
502
501
502
502
502
505
507
508
509
511
511
510
507
507
508
508
509
509
512
512
511
510
511
514
516
519
522
523
524
528
531
532
535
536
537
533
527
521
519
520
522
526
529
534
536
539
540
541
541
540
540
542
542
542
539
539
540
539
542
547
549
550
552
552
554
555
557
556
556
555
554
556
558
563
564
568
572
573
573
573
573
574
574
575
575
574
572
569
567
568
570
571
573
574
571
570
568
567
566
567
566
565
566
568
566
565
565
563
562
559
556
553
547
542
539
537
536
536
535
531
529
527
527
524
520
519
518
516
514
512
508
505
502
501
499
496
492
487
481
477
475
475
476
478
477
473
470
465
464
464
463
462
459
455
451
451
451
450
450
452
452
449
448
446
444
443
444
444
446
448
449
449
450
449
448
449
450
450
449
448
446
446
445
446
447
449
452
451
449
449
449
451
455
460
464
465
466
464
464
464
464
462
461
460
460
460
461
459
457
457
459
460
461
463
464
465
467
468
470
469
466
464
463
463
465
469
473
476
476
476
473
472
472
472
471
470
471
471
474
478
480
483
486
486
484
478
474
469
467
469
470
473
476
477
479
480
481
485
489
492
493
493
490
489
486
484
484
484
487
489
491
492
492
495
496
496
497
497
496
494
492
490
487
484
482
483
483
482
483
483
483
485
486
487
491
493
493
492
492
493
495
496
496
496
496
495
494
493
497
501
505
507
506
504
502
500
498
499
500
498
495
492
492
493
495
496
496
497
499
499
499
499
501
502
503
503
500
495
493
494
496
499
504
508
508
505
503
500
502
504
507
508
510
512
511
511
511
511
511
511
512
511
507
506
507
507
505
503
503
502
501
501
501
503
504
508
510
512
511
508
506
506
507
507
507
505
503
502
502
504
506
509
512
515
516
515
513
513
513
512
512
511
510
507
504
503
502
501
500
503
504
505
508
509
511
511
512
512
512
511
509
508
509
510
512
513
513
513
513
515
517
518
516
516
514
511
510
509
508
510
512
515
516
518
519
520
523
527
531
534
538
538
534
531
527
526
526
529
534
535
535
536
534
532
531
530
531
531
532
532
532
532
533
533
532
534
534
532
531
530
529
529
529
529
526
521
516
512
509
506
505
504
500
499
499
499
499
500
501
499
496
496
494
492
489
488
489
492
494
497
497
495
492
492
492
491
491
491
492
492
491
491
492
492
495
499
502
503
504
505
504
502
498
496
494
493
491
487
483
478
477
479
482
487
490
495
503
514
527
539
550
558
566
574
583
595
606
616
625
633
640
647
651
659
664
671
679
689
703
716
728
732
726
712
692
670
649
626
601
577
558
540
526
519
517
519
521
524
529
534
538
541
537
531
525
523
521
522
521
519
514
509
504
499
495
489
485
480
476
471
466
463
460
456
454
451
449
450
449
449
450
451
451
451
451
455
457
455
454
452
449
451
454
455
456
456
456
455
455
456
455
456
456
457
457
456
456
456
458
461
463
465
465
464
461
460
459
461
465
468
472
476
477
478
477
477
475
476
477
477
477
477
477
477
478
480
483
485
484
484
486
487
488
488
487
486
487
486
482
480
478
478
480
483
486
488
490
490
489
488
488
489
489
489
489
492
494
496
499
501
504
504
506
507
506
507
507
509
510
512
512
510
508
508
510
512
516
517
516
513
511
511
511
512
515
518
519
519
519
519
519
521
522
524
524
524
526
526
528
530
531
532
529
527
526
525
527
529
533
536
538
541
544
544
545
546
547
548
551
554
555
556
556
559
561
563
564
564
566
566
564
561
559
558
558
560
563
563
564
566
567
568
568
569
568
568
570
571
572
573
573
574
575
575
575
575
578
579
578
579
579
579
578
577
575
575
575
572
569
568
565
561
559
560
559
559
559
556
551
548
544
541
537
535
532
531
527
520
517
516
512
505
500
497
493
489
487
487
486
483
480
476
472
467
465
461
459
458
461
463
464
465
465
465
464
462
461
458
454
446
438
433
432
434
434
434
435
436
438
440
439
438
440
440
441
441
441
439
439
439
438
437
438
441
441
442
442
442
442
442
442
444
445
445
445
446
447
447
449
450
453
455
455
456
457
458
459
456
457
458
457
458
461
463
463
465
468
470
471
470
468
463
459
458
458
460
460
459
459
459
460
462
464
466
468
471
474
474
475
477
479
480
479
476
473
472
473
472
472
475
478
481
481
481
482
483
484
485
487
487
486
483
481
481
479
479
480
483
483
486
489
492
493
494
491
489
487
483
482
483
486
487
490
495
498
500
500
501
501
503
504
504
502
501
499
497
496
496
499
501
500
500
501
502
503
502
501
499
499
500
500
499
497
496
495
497
501
504
507
507
509
511
507
504
498
496
496
495
495
495
494
495
494
494
495
497
499
502
504
504
505
506
505
504
502
502
502
502
503
503
504
504
503
501
502
501
502
505
508
508
505
504
505
503
500
501
504
507
509
510
509
510
509
509
508
510
511
510
508
508
507
509
515
519
516
512
510
508
506
504
504
504
504
505
502
501
501
501
500
500
501
502
502
504
509
511
511
510
511
511
509
509
509
508
505
506
508
510
510
510
509
508
508
508
508
508
506
501
500
503
503
506
511
515
516
517
516
514
512
511
510
509
508
510
509
508
510
511
512
512
511
510
510
511
512
511
511
511
511
512
512
512
515
520
523
526
529
532
534
535
534
535
534
531
529
528
527
526
527
528
529
531
533
535
536
536
535
534
533
533
531
527
525
525
526
527
528
527
527
526
522
517
513
510
507
504
503
501
501
499
496
494
495
496
494
493
494
496
496
495
494
494
495
497
495
494
494
492
492
492
489
489
489
489
490
488
487
486
487
487
488
490
489
492
495
496
496
496
497
498
500
500
496
492
490
485
483
483
486
492
500
509
518
529
539
548
556
564
575
585
595
606
616
626
635
641
649
659
669
679
693
707
721
735
746
755
756
751
740
726
710
691
670
647
623
603
588
577
573
572
572
571
568
566
564
563
559
553
548
544
537
530
525
520
517
515
512
506
498
490
483
476
468
463
459
455
451
446
440
438
439
440
439
439
438
436
435
433
433
433
434
434
435
433
431
429
429
429
430
434
438
440
443
444
445
445
445
444
444
444
444
444
443
444
448
450
450
452
455
456
456
456
458
461
464
469
471
471
470
467
466
468
470
469
468
466
464
465
465
468
469
472
473
477
478
480
482
484
483
484
486
486
487
489
491
490
490
488
487
486
486
483
483
484
485
486
487
488
489
491
494
496
497
499
501
501
502
501
499
499
499
500
503
504
504
504
505
507
507
508
509
509
507
504
503
501
498
499
499
502
505
508
509
510
512
514
516
519
520
522
524
524
524
526
527
527
528
530
531
531
532
534
536
537
538
538
540
541
542
543
545
546
547
548
550
551
554
554
552
548
547
547
547
547
548
548
551
554
557
560
561
562
561
562
563
567
569
569
571
572
571
570
569
568
567
569
571
570
569
568
565
563
560
556
556
559
561
561
560
558
556
557
559
561
563
561
559
555
553
552
550
551
547
545
540
536
535
534
534
535
534
531
527
523
518
515
514
512
512
510
507
504
500
497
493
491
491
489
485
481
478
476
472
470
467
465
463
458
455
454
453
452
451
452
453
451
450
449
448
449
447
447
446
445
443
442
444
445
446
448
451
452
452
452
453
454
453
452
452
449
448
447
447
448
448
446
447
449
452
455
455
457
458
460
461
463
464
464
463
463
463
466
468
469
470
470
472
474
472
471
471
472
472
472
471
471
471
470
467
468
472
475
476
478
479
478
478
478
479
480
480
479
480
482
481
480
481
483
482
482
481
480
480
480
481
480
478
477
477
477
477
479
480
481
482
483
484
486
487
487
487
489
490
488
485
482
481
480
480
483
488
494
497
498
497
497
498
499
497
495
492
489
486
485
486
489
495
496
496
495
492
491
491
491
492
492
492
492
493
495
496
497
496
497
496
494
495
496
497
500
501
502
504
504
503
501
499
497
495
496
499
503
505
505
504
503
501
498
497
496
494
496
497
501
503
504
505
505
505
506
507
507
506
506
508
507
505
501
498
498
499
501
504
509
511
510
509
506
503
502
500
500
500
503
505
507
508
507
505
504
505
505
506
507
505
505
507
508
508
508
508
506
504
505
507
509
511
512
513
512
511
511
508
507
507
507
505
503
501
500
499
499
500
504
508
510
510
508
507
507
507
504
502
503
505
506
508
510
513
514
515
515
514
511
509
507
506
505
504
504
504
505
507
508
509
511
512
515
516
515
513
513
514
513
513
512
511
510
508
507
504
502
502
505
510
514
518
521
526
528
530
531
530
526
521
516
515
513
511
511
511
511
510
510
512
514
515
516
515
515
514
511
510
509
508
512
514
515
514
515
518
522
525
527
528
530
534
536
536
536
535
535
535
534
533
533
533
534
535
535
537
538
537
535
532
531
531
532
534
534
532
530
529
529
527
527
527
529
532
531
529
525
522
518
515
513
512
511
511
510
507
505
503
504
504
504
507
504
500
496
491
489
488
490
492
493
495
499
502
504
504
502
497
495
492
490
489
491
492
493
495
497
497
495
495
496
498
497
497
496
494
492
489
489
486
484
484
485
487
489
495
502
509
517
526
536
542
548
558
571
584
599
612
625
635
643
648
657
670
683
692
702
714
727
738
751
764
768
765
755
742
726
707
683
654
628
606
590
582
574
569
567
564
563
561
559
558
556
553
547
539
532
527
522
516
512
507
498
489
481
476
475
472
469
466
462
458
454
449
446
443
440
439
438
438
437
437
435
435
436
436
435
434
433
433
434
434
435
440
444
446
445
445
446
447
448
450
451
452
451
450
451
451
453
454
455
456
456
456
455
456
457
457
459
460
460
460
459
460
462
462
461
455
452
449
448
448
449
456
462
468
473
474
475
476
478
480
483
484
482
481
480
480
482
484
486
488
488
489
489
487
487
486
485
485
488
489
491
492
491
489
489
490
493
494
495
493
491
494
498
501
504
504
504
502
502
504
505
505
506
508
508
508
511
513
512
512
509
508
507
506
506
507
511
515
519
523
524
524
524
524
523
522
523
524
525
525
524
524
523
522
523
525
529
535
534
534
533
533
533
532
531
531
536
540
546
553
554
553
555
555
557
558
560
561
562
564
564
566
565
564
565
566
567
567
568
568
570
572
573
572
572
572
572
572
572
573
573
571
568
567
568
571
572
572
571
568
568
567
566
563
560
558
558
557
556
553
551
550
549
551
553
553
555
554
551
546
541
537
534
531
528
524
523
521
520
520
520
518
514
510
507
503
501
497
493
488
483
478
474
472
471
471
471
467
462
459
458
457
457
460
463
464
464
463
461
461
460
459
458
456
456
455
454
452
453
454
451
449
447
445
444
442
443
444
444
446
448
452
454
456
458
459
461
460
458
455
452
451
449
449
450
451
454
457
462
465
467
466
465
465
467
466
466
465
464
464
464
466
467
468
471
472
473
471
470
471
470
472
473
473
473
473
475
478
479
479
478
478
478
478
476
475
476
476
476
478
478
478
478
478
476
472
474
476
479
481
484
487
488
488
489
489
489
488
488
487
484
483
484
484
484
482
483
485
484
483
481
482
483
482
482
481
483
484
487
492
496
497
494
492
493
494
493
490
491
492
490
488
487
486
486
487
489
491
490
492
495
498
502
504
504
502
502
501
500
502
499
497
497
499
499
498
497
495
495
496
496
497
497
497
496
495
493
494
498
499
500
501
501
502
503
502
500
501
503
503
502
501
499
499
500
500
499
501
502
502
498
497
498
499
503
504
504
504
504
505
505
503
504
503
504
508
508
506
504
503
502
501
502
503
504
503
503
503
503
506
508
507
506
509
512
514
515
514
513
512
511
511
509
509
508
507
507
507
507
508
508
508
508
507
508
508
508
507
506
505
505
508
509
508
508
507
504
501
500
501
503
504
504
504
505
505
509
510
511
513
515
516
517
519
518
515
514
511
508
508
506
507
508
509
511
513
515
516
515
512
510
509
509
510
511
511
512
512
511
514
517
518
521
524
526
528
528
528
529
528
526
527
528
529
530
530
531
534
536
540
541
540
539
537
536
532
529
528
527
527
528
528
529
530
530
530
532
532
533
530
526
524
524
525
526
524
521
518
514
512
509
504
500
498
499
499
499
498
499
499
502
505
508
510
509
504
501
499
496
495
497
498
497
496
496
495
496
494
495
495
493
493
492
492
492
492
496
497
499
500
500
502
501
499
495
491
490
488
484
483
483
485
488
492
497
500
504
510
519
530
542
553
563
573
581
588
598
608
615
625
634
643
651
660
670
678
686
696
705
717
728
731
726
715
696
673
649
630
608
584
564
549
538
529
523
519
518
517
518
521
524
525
523
520
515
512
510
512
511
509
508
507
504
499
494
487
481
476
473
472
470
468
464
460
458
456
457
456
455
455
454
452
449
446
443
440
444
448
449
450
452
451
449
449
449
450
451
451
450
450
451
451
452
452
454
455
457
460
464
465
465
466
464
463
463
462
462
464
464
467
470
473
476
479
483
484
484
484
486
486
484
482
479
478
479
478
477
477
478
478
476
477
480
481
483
486
487
487
488
491
493
495
496
497
500
500
501
502
502
503
501
499
499
496
495
493
492
494
496
497
499
499
500
501
501
501
502
504
505
506
505
505
506
504
504
507
512
516
519
520
519
518
516
516
518
518
518
517
518
520
523
524
523
523
524
524
524
526
528
529
528
527
528
530
530
531
534
536
539
543
547
549
549
548
548
546
545
545
547
550
550
551
552
554
558
561
567
573
576
575
573
570
567
565
566
568
572
575
574
575
575
575
575
576
576
575
575
572
570
567
564
565
566
568
570
572
572
574
575
576
575
574
572
569
567
566
565
565
565
566
564
563
560
558
558
556
555
554
553
551
547
544
542
542
542
537
531
524
518
513
506
500
496
493
492
487
483
479
478
477
474
471
468
464
460
458
457
456
456
458
458
458
458
458
457
455
455
453
453
453
452
448
446
443
442
440
440
439
436
432
431
431
432
433
433
433
434
435
436
438
440
441
441
442
443
444
446
449
449
450
450
449
449
448
448
448
447
447
447
448
449
449
451
453
457
458
457
456
455
455
454
452
451
450
449
449
450
452
453
455
455
456
459
460
464
465
466
465
462
462
462
462
463
466
470
472
476
478
479
477
472
468
466
467
470
473
475
475
472
473
473
473
472
471
471
471
471
472
472
472
474
475
476
478
480
483
485
486
486
486
485
484
483
482
483
484
486
487
490
492
493
492
492
494
495
494
492
492
494
495
494
492
492
493
492
491
491
491
492
494
496
497
496
498
499
499
500
500
502
504
503
501
498
498
497
497
498
499
499
500
501
502
502
498
497
496
494
492
491
492
494
497
500
504
507
508
505
504
504
504
506
508
507
504
501
497
496
497
498
499
499
500
501
499
500
501
502
502
501
503
503
502
502
505
506
505
504
502
502
503
504
504
503
500
499
495
494
491
491
494
496
498
500
504
507
508
509
510
510
511
512
512
511
509
508
507
507
508
509
511
512
513
513
512
511
511
508
503
500
499
498
497
499
500
503
504
506
508
508
510
511
510
510
510
511
511
511
509
508
510
511
512
514
515
515
513
511
510
508
507
505
505
506
506
505
506
508
510
511
515
519
520
521
520
520
521
524
528
532
535
533
531
526
525
526
527
530
533
534
536
537
537
537
535
531
527
527
525
524
520
519
520
519
521
524
524
524
526
526
527
527
525
521
516
512
509
507
506
505
504
500
496
488
484
486
487
489
492
494
494
493
492
491
492
492
492
493
492
492
496
498
499
501
502
500
499
496
491
487
484
483
484
485
488
491
491
492
493
496
497
497
497
497
495
490
484
482
481
482
484
488
494
501
511
522
532
540
548
558
570
579
591
604
615
622
628
635
640
651
663
675
685
692
702
714
726
738
744
743
736
722
705
688
670
648
626
607
590
577
570
566
563
562
560
558
555
553
551
546
542
537
532
526
521
519
515
512
507
500
492
483
476
471
468
463
459
456
453
449
447
446
446
444
445
447
447
447
444
442
440
440
441
444
448
448
444
442
440
439
441
444
447
448
449
449
449
452
456
459
462
462
458
455
453
454
455
456
458
458
459
461
462
463
464
465
465
465
465
464
464
464
462
462
462
463
465
465
464
463
463
464
469
472
473
473
472
473
474
478
482
483
483
482
481
482
483
481
480
477
478
479
482
483
483
486
488
492
495
497
499
497
496
495
495
497
497
496
497
498
499
499
502
503
504
505
507
507
506
506
506
505
506
504
504
504
502
504
505
507
511
516
520
523
523
523
522
525
528
529
529
527
524
518
517
520
520
521
522
522
521
524
526
529
532
535
538
540
540
538
538
539
542
545
547
550
550
548
544
542
544
544
545
547
552
557
559
560
562
563
564
566
568
569
568
564
561
559
559
561
564
565
566
566
565
567
569
573
575
574
572
570
568
565
564
566
564
564
563
563
563
564
564
567
568
571
570
568
566
559
553
548
544
542
545
549
547
544
540
536
532
527
524
521
518
515
511
510
509
507
504
505
508
508
507
503
496
492
487
480
475
471
468
466
467
468
467
466
463
461
460
459
460
459
457
459
459
458
457
454
453
452
452
453
456
458
457
458
455
452
450
447
447
445
446
446
445
444
444
443
444
446
449
452
453
455
454
454
455
456
458
457
455
453
451
451
451
453
457
460
462
463
463
465
465
463
463
463
462
461
462
466
469
472
473
474
473
476
478
480
481
480
480
476
474
472
471
472
475
477
478
479
480
480
479
481
480
481
483
485
487
490
488
485
483
483
482
483
483
483
485
485
484
483
482
483
483
484
482
479
478
480
481
484
487
489
488
489
488
487
491
494
497
498
498
497
495
491
491
491
493
497
499
499
499
499
497
496
496
496
496
495
493
493
494
495
495
497
501
503
503
505
506
505
503
501
501
502
503
501
501
501
501
502
501
501
500
500
499
498
497
497
496
496
496
499
498
498
497
496
496
496
496
495
497
500
502
502
500
499
499
497
497
497
502
504
503
504
505
508
509
509
508
508
508
509
509
509
508
505
504
505
508
510
508
507
504
503
501
501
503
504
505
506
505
504
501
500
499
499
502
504
508
509
509
509
509
511
511
509
507
505
503
504
504
506
506
506
507
508
507
504
503
503
503
503
504
506
506
503
501
501
504
506
508
509
508
508
511
512
513
515
514
512
509
511
511
511
512
514
515
516
515
514
512
510
509
508
506
505
505
507
508
510
511
513
513
513
514
512
513
512
510
511
512
512
511
512
511
508
508
511
515
517
520
524
522
520
518
514
512
512
514
515
513
514
511
510
507
508
510
514
518
519
522
525
526
527
528
529
531
529
525
523
523
521
522
526
530
533
536
537
539
539
536
535
533
533
530
527
526
526
525
526
527
531
533
534
537
540
544
544
542
539
537
536
531
525
522
519
519
516
512
508
505
507
508
507
505
504
502
501
500
499
497
496
491
489
489
492
498
502
504
505
505
507
506
505
503
499
498
496
494
493
492
492
492
492
491
489
489
489
489
490
491
493
492
493
494
494
492
489
487
484
480
478
477
479
485
493
503
512
522
531
540
547
551
561
574
585
598
609
620
632
642
652
663
675
684
691
702
713
724
737
755
770
771
764
750
732
713
692
672
650
628
610
597
588
583
579
579
578
576
574
571
568
563
558
551
543
536
529
521
512
505
499
492
488
485
480
475
470
465
463
458
455
451
449
446
441
438
437
437
436
438
441
441
440
438
436
435
435
435
433
432
432
432
433
433
434
436
437
437
438
440
443
446
447
447
447
448
447
445
444
443
445
446
446
449
448
448
452
456
461
463
465
464
465
464
462
463
462
462
464
467
470
471
471
469
468
470
469
468
470
472
472
471
472
472
471
470
472
476
479
480
480
480
482
483
485
488
490
489
488
490
490
489
488
491
494
497
499
500
499
498
499
498
497
495
493
492
489
488
492
498
503
504
506
506
508
509
508
506
503
500
500
501
504
507
509
511
515
518
521
522
525
526
529
531
532
532
530
526
525
525
527
526
526
527
526
526
525
527
529
531
532
532
535
538
537
536
536
538
541
545
548
548
547
548
550
553
556
558
559
560
560
561
563
566
567
566
564
564
563
560
561
561
560
559
558
562
563
564
566
569
574
575
575
575
575
578
581
583
583
581
577
572
569
565
563
564
564
564
561
558
557
556
555
554
554
556
558
554
550
546
542
535
530
527
523
521
521
520
519
515
513
511
507
504
502
500
498
496
494
492
492
491
490
491
487
482
478
475
472
471
471
469
465
462
456
454
454
455
456
459
462
460
457
455
454
455
453
451
448
445
440
439
440
440
439
441
444
448
449
449
449
448
449
452
453
456
457
457
455
456
460
463
464
466
465
467
466
465
462
459
455
455
455
457
458
457
456
455
455
455
459
461
464
466
469
471
470
468
469
469
469
467
464
465
466
469
473
475
474
472
473
474
475
476
475
476
478
480
479
480
481
480
481
482
480
480
479
478
476
476
475
476
479
480
480
480
481
481
481
484
488
490
491
492
491
489
487
487
490
491
492
490
488
486
485
487
491
491
492
490
491
489
489
489
487
488
489
488
488
490
494
495
496
495
494
494
493
491
490
489
487
484
486
488
491
494
496
496
497
498
500
499
498
497
496
497
497
496
495
495
498
498
498
499
500
501
502
503
503
503
504
503
502
501
499
500
503
502
504
504
504
502
503
506
506
504
500
500
499
499
503
507
509
508
506
503
498
495
494
494
493
492
496
500
502
504
505
507
506
505
507
509
508
507
507
505
504
505
507
508
510
508
507
506
506
507
507
508
508
508
506
502
503
504
507
509
507
505
504
503
502
502
505
509
510
510
509
508
510
514
516
516
516
514
511
508
505
504
505
506
506
507
507
508
507
510
512
513
512
511
511
511
513
513
515
517
518
516
511
506
505
505
506
506
505
507
509
510
510
509
509
509
510
510
510
512
514
516
518
521
524
525
524
521
518
516
516
515
515
515
515
514
516
519
521
524
527
529
531
529
529
529
530
531
530
533
534
533
532
531
532
531
531
530
529
527
527
529
531
532
533
532
531
529
527
526
525
524
524
522
521
518
515
513
512
511
512
514
515
515
511
502
495
491
488
489
488
489
489
488
487
489
492
497
497
500
501
500
500
498
498
496
498
499
498
497
496
495
493
493
495
496
496
494
491
489
489
490
494
498
502
500
498
495
490
488
488
491
496
501
508
515
524
534
543
551
559
567
576
587
598
611
621
630
641
649
657
664
672
681
691
700
711
724
736
740
736
723
705
683
663
640
616
592
571
554
542
533
527
525
526
528
531
533
536
535
529
525
519
516
515
516
515
514
512
509
506
504
501
496
494
488
484
480
478
472
463
455
448
443
441
440
440
444
447
449
449
449
449
448
450
453
455
456
457
457
456
457
458
460
462
463
463
461
460
461
462
462
464
465
462
456
453
452
453
456
457
459
460
460
462
465
469
471
472
473
475
474
470
470
470
469
471
473
476
480
485
488
490
492
491
489
487
484
479
478
476
477
478
480
481
480
480
480
481
484
487
488
490
491
489
487
487
487
488
489
489
491
492
492
494
496
497
499
500
500
500
499
497
496
498
498
501
504
505
508
508
509
508
508
510
512
515
517
518
519
519
518
518
517
518
518
519
520
521
524
527
531
534
537
538
535
531
531
532
532
529
527
528
529
533
535
537
540
542
545
545
543
540
537
539
539
540
540
543
545
547
551
554
555
559
562
561
560
561
561
562
563
564
567
570
571
572
572
572
571
572
574
575
573
568
563
560
558
559
564
567
570
573
574
576
576
577
577
575
574
572
569
567
564
563
561
561
560
557
553
550
550
550
548
548
547
546
545
544
541
538
535
530
526
523
521
518
516
514
512
510
508
506
504
505
501
495
489
480
472
469
469
467
463
462
460
460
458
455
450
447
445
445
446
446
443
443
443
443
444
444
445
447
448
449
447
444
441
437
436
436
434
431
431
437
441
441
442
439
438
439
443
445
444
445
446
446
446
445
446
444
443
442
440
443
446
448
449
450
451
451
451
451
451
455
460
464
468
468
467
462
460
458
456
458
459
458
458
456
454
452
452
454
458
463
466
467
467
468
470
471
474
476
475
472
471
471
472
472
470
468
468
469
470
470
470
473
476
477
480
483
483
483
483
485
486
487
489
490
491
490
491
489
486
484
481
480
478
473
473
476
476
477
480
482
480
479
479
480
483
484
484
486
487
490
489
489
489
489
490
490
491
494
496
498
497
499
500
502
503
502
499
496
494
492
491
493
496
497
498
499
499
498
498
498
496
494
492
489
488
492
497
501
502
503
503
504
502
501
503
504
505
505
506
505
502
501
502
500
501
500
501
502
502
503
506
506
506
504
505
504
499
496
496
497
496
496
497
496
496
495
497
499
498
499
500
501
504
503
503
504
506
508
508
508
507
507
505
504
505
504
503
503
502
501
500
501
503
502
504
506
506
506
508
509
510
511
510
510
509
509
510
511
508
509
508
508
508
507
506
505
506
506
505
504
504
502
502
503
505
506
508
510
511
514
519
523
526
529
531
530
529
529
527
525
522
520
519
519
522
524
526
527
529
532
532
531
528
527
530
532
532
531
534
539
540
540
539
537
532
526
522
523
524
523
517
511
505
499
497
496
496
496
495
497
497
499
499
499
499
498
496
492
488
487
487
488
488
487
487
487
488
490
491
491
492
494
495
494
493
492
495
496
496
496
495
496
495
494
495
497
496
496
496
498
497
497
494
490
487
486
483
482
484
488
494
502
510
520
532
543
551
560
569
580
590
601
612
620
629
637
647
657
666
675
682
688
695
704
716
726
730
727
716
701
683
666
650
630
608
585
568
555
547
546
546
548
550
551
551
552
549
545
541
537
531
525
519
517
515
514
511
507
501
493
484
476
469
464
460
456
456
455
453
451
450
450
449
449
448
446
444
443
444
447
449
453
455
458
460
460
460
457
455
454
450
448
445
442
441
442
445
448
449
452
452
452
455
456
457
457
459
463
465
466
467
468
468
468
470
472
473
473
473
475
476
478
477
475
475
473
472
471
470
472
472
473
476
477
479
482
485
487
489
489
489
489
490
490
490
491
492
490
490
491
489
487
484
485
486
491
495
497
497
498
496
495
495
496
499
501
502
503
504
505
505
506
505
504
505
505
504
505
508
510
510
509
510
509
510
511
512
513
514
516
518
519
517
515
515
515
515
517
519
521
524
526
527
527
528
528
532
536
536
538
536
533
532
531
529
530
531
534
536
538
541
543
548
550
552
552
551
550
547
548
550
553
556
558
561
564
567
569
572
575
573
572
569
567
566
565
562
560
560
563
563
565
565
564
566
568
572
575
576
577
575
573
573
572
572
573
573
572
572
572
569
568
568
568
567
564
561
558
556
553
547
543
541
537
536
534
534
536
535
533
530
526
520
513
507
501
496
495
495
494
493
489
486
484
484
485
486
484
482
480
475
472
468
463
463
465
466
463
462
465
466
465
463
459
455
449
446
444
444
444
